PE UV                   SPECTRUM    ASCII       PEDS        1.60        
  -1
0-2MLA.SP
02/09/24
01:45:32.00
02/09/24
02:18:11.00


200.000000
1









4444

SCAN
1
1


0.0
240.0
1.00
MANUAL



UV/VIS




































#HDR
-1
-1
#GR
NM
A
0.00000011920928955078
0.0
800.000000
6.000000
101
8
1.285180
0.000880
#DATA
800.000000	0.001000 
794.000000	0.000880 
788.000000	0.001110 
782.000000	0.001050 
776.000000	0.001270 
770.000000	0.001200 
764.000000	0.001300 
758.000000	0.001350 
752.000000	0.001470 
746.000000	0.001430 
740.000000	0.001540 
734.000000	0.001550 
728.000000	0.001470 
722.000000	0.001470 
716.000000	0.001280 
710.000000	0.001360 
704.000000	0.001460 
698.000000	0.001480 
692.000000	0.001460 
686.000000	0.001480 
680.000000	0.001550 
674.000000	0.001340 
668.000000	0.001610 
662.000000	0.001470 
656.000000	0.001600 
650.000000	0.001610 
644.000000	0.001650 
638.000000	0.001610 
632.000000	0.001690 
626.000000	0.001770 
620.000000	0.001800 
614.000000	0.001910 
608.000000	0.001920 
602.000000	0.001930 
596.000000	0.002160 
590.000000	0.002150 
584.000000	0.002320 
578.000000	0.002250 
572.000000	0.002370 
566.000000	0.002590 
560.000000	0.002620 
554.000000	0.002690 
548.000000	0.002940 
542.000000	0.002990 
536.000000	0.003130 
530.000000	0.003280 
524.000000	0.003470 
518.000000	0.003710 
512.000000	0.003960 
506.000000	0.004220 
500.000000	0.004310 
494.000000	0.004670 
488.000000	0.004960 
482.000000	0.005260 
476.000000	0.005680 
470.000000	0.006040 
464.000000	0.006420 
458.000000	0.006900 
452.000000	0.007030 
446.000000	0.007500 
440.000000	0.008120 
434.000000	0.008560 
428.000000	0.009209 
422.000000	0.009650 
416.000000	0.010470 
410.000000	0.010810 
404.000000	0.011810 
398.000000	0.012650 
392.000000	0.013940 
386.000000	0.015000 
380.000000	0.016960 
374.000000	0.017170 
368.000000	0.019290 
362.000000	0.022030 
356.000000	0.024960 
350.000000	0.027650 
344.000000	0.031480 
338.000000	0.034250 
332.000000	0.039120 
326.000000	0.043100 
320.000000	0.048210 
314.000000	0.054380 
308.000000	0.062240 
302.000000	0.072160 
296.000000	0.081629 
290.000000	0.090130 
284.000000	0.097440 
278.000000	0.102470 
272.000000	0.099730 
266.000000	0.095210 
260.000000	0.095360 
254.000000	0.102340 
248.000000	0.114740 
242.000000	0.135990 
236.000000	0.181340 
230.000000	0.278170 
224.000000	0.448880 
218.000000	0.681150 
212.000000	0.934620 
206.000000	1.134550 
200.000000	1.285180 

