PE UV                   SPECTRUM    ASCII       PEDS        1.60        
  -1
0-6MLA.SP
02/09/24
01:56:26.00
02/09/24
02:18:29.00


200.000000
1









4444

SCAN
1
1


0.0
240.0
1.00
MANUAL



UV/VIS




































#HDR
-1
-1
#GR
NM
A
0.00000011920928955078
0.0
800.000000
6.000000
101
8
2.928620
0.001960
#DATA
800.000000	0.002060 
794.000000	0.001960 
788.000000	0.002030 
782.000000	0.001990 
776.000000	0.002010 
770.000000	0.002060 
764.000000	0.002040 
758.000000	0.001980 
752.000000	0.002010 
746.000000	0.002070 
740.000000	0.002070 
734.000000	0.002060 
728.000000	0.002060 
722.000000	0.002190 
716.000000	0.002230 
710.000000	0.002230 
704.000000	0.002240 
698.000000	0.002270 
692.000000	0.002320 
686.000000	0.002410 
680.000000	0.002520 
674.000000	0.002470 
668.000000	0.002640 
662.000000	0.002460 
656.000000	0.002680 
650.000000	0.002720 
644.000000	0.002730 
638.000000	0.002760 
632.000000	0.002910 
626.000000	0.003060 
620.000000	0.003190 
614.000000	0.003280 
608.000000	0.003500 
602.000000	0.003490 
596.000000	0.003830 
590.000000	0.003910 
584.000000	0.004140 
578.000000	0.004270 
572.000000	0.004530 
566.000000	0.004880 
560.000000	0.004780 
554.000000	0.005230 
548.000000	0.005540 
542.000000	0.005830 
536.000000	0.006350 
530.000000	0.006510 
524.000000	0.007030 
518.000000	0.007430 
512.000000	0.008050 
506.000000	0.008630 
500.000000	0.009240 
494.000000	0.009939 
488.000000	0.010770 
482.000000	0.011430 
476.000000	0.012330 
470.000000	0.013320 
464.000000	0.014200 
458.000000	0.015420 
452.000000	0.016200 
446.000000	0.017320 
440.000000	0.018580 
434.000000	0.019800 
428.000000	0.021190 
422.000000	0.022420 
416.000000	0.024130 
410.000000	0.025550 
404.000000	0.027900 
398.000000	0.030030 
392.000000	0.032840 
386.000000	0.035660 
380.000000	0.038580 
374.000000	0.042510 
368.000000	0.047410 
362.000000	0.053210 
356.000000	0.060170 
350.000000	0.067750 
344.000000	0.075770 
338.000000	0.085240 
332.000000	0.095180 
326.000000	0.106250 
320.000000	0.119080 
314.000000	0.135000 
308.000000	0.155020 
302.000000	0.180380 
296.000000	0.206120 
290.000000	0.229800 
284.000000	0.251780 
278.000000	0.269680 
272.000000	0.267250 
266.000000	0.257830 
260.000000	0.256150 
254.000000	0.269040 
248.000000	0.295250 
242.000000	0.345970 
236.000000	0.460160 
230.000000	0.706790 
224.000000	1.139180 
218.000000	1.717990 
212.000000	2.313650 
206.000000	2.719220 
200.000000	2.928620 

