PE UV                   SPECTRUM    ASCII       PEDS        1.60        
  -1
0-6MB.SP
02/09/24
01:59:25.00
02/09/24
02:21:16.00


200.000000
1









4444

SCAN
1
1


0.0
240.0
1.00
MANUAL



UV/VIS




































#HDR
-1
-1
#GR
NM
A
0.00000011920928955078
0.0
800.000000
6.000000
101
8
2.936240
0.001770
#DATA
800.000000	0.001770 
794.000000	0.001840 
788.000000	0.002030 
782.000000	0.001940 
776.000000	0.001980 
770.000000	0.002080 
764.000000	0.002150 
758.000000	0.002170 
752.000000	0.002120 
746.000000	0.002200 
740.000000	0.002210 
734.000000	0.002210 
728.000000	0.002180 
722.000000	0.002210 
716.000000	0.002180 
710.000000	0.002400 
704.000000	0.002340 
698.000000	0.002330 
692.000000	0.002410 
686.000000	0.002450 
680.000000	0.002610 
674.000000	0.002470 
668.000000	0.002650 
662.000000	0.002580 
656.000000	0.002590 
650.000000	0.002710 
644.000000	0.002770 
638.000000	0.002920 
632.000000	0.003050 
626.000000	0.003160 
620.000000	0.003270 
614.000000	0.003460 
608.000000	0.003590 
602.000000	0.003570 
596.000000	0.003900 
590.000000	0.004020 
584.000000	0.004140 
578.000000	0.004180 
572.000000	0.004500 
566.000000	0.004760 
560.000000	0.004930 
554.000000	0.005250 
548.000000	0.005570 
542.000000	0.005910 
536.000000	0.006280 
530.000000	0.006650 
524.000000	0.007220 
518.000000	0.007560 
512.000000	0.008200 
506.000000	0.008630 
500.000000	0.009530 
494.000000	0.010000 
488.000000	0.010870 
482.000000	0.011580 
476.000000	0.012520 
470.000000	0.013520 
464.000000	0.014300 
458.000000	0.015300 
452.000000	0.016360 
446.000000	0.017610 
440.000000	0.018670 
434.000000	0.019730 
428.000000	0.021120 
422.000000	0.022480 
416.000000	0.024150 
410.000000	0.025570 
404.000000	0.027850 
398.000000	0.029960 
392.000000	0.032960 
386.000000	0.035780 
380.000000	0.040150 
374.000000	0.042740 
368.000000	0.047920 
362.000000	0.053980 
356.000000	0.060590 
350.000000	0.067430 
344.000000	0.075240 
338.000000	0.084910 
332.000000	0.094860 
326.000000	0.106420 
320.000000	0.118950 
314.000000	0.135020 
308.000000	0.155220 
302.000000	0.180580 
296.000000	0.206230 
290.000000	0.230130 
284.000000	0.252010 
278.000000	0.270070 
272.000000	0.267400 
266.000000	0.258190 
260.000000	0.256560 
254.000000	0.269080 
248.000000	0.295500 
242.000000	0.346140 
236.000000	0.460280 
230.000000	0.706709 
224.000000	1.139040 
218.000000	1.717940 
212.000000	2.313530 
206.000000	2.716740 
200.000000	2.936240 

