PE UV                   SPECTRUM    ASCII       PEDS        1.60        
  -1
0-8MLB.SP
02/09/24
02:40:49.00
02/09/24
02:59:11.00


200.000000
1









4444

SCAN
1
1


0.0
240.0
1.00
MANUAL



UV/VIS




































#HDR
-1
-1
#GR
NM
A
0.00000011920928955078
0.0
800.000000
6.000000
101
8
3.389580
-0.000889
#DATA
800.000000	-0.000820 
794.000000	-0.000889 
788.000000	-0.000860 
782.000000	-0.000770 
776.000000	-0.000500 
770.000000	-0.000530 
764.000000	-0.000340 
758.000000	-0.000350 
752.000000	-0.000210 
746.000000	-0.000040 
740.000000	0.000000  
734.000000	0.000060  
728.000000	-0.000030 
722.000000	-0.000040 
716.000000	-0.000050 
710.000000	-0.000200 
704.000000	-0.000160 
698.000000	-0.000170 
692.000000	-0.000100 
686.000000	-0.000180 
680.000000	-0.000090 
674.000000	-0.000130 
668.000000	-0.000140 
662.000000	-0.000080 
656.000000	0.000180  
650.000000	0.000210  
644.000000	0.000330  
638.000000	0.000420  
632.000000	0.000590  
626.000000	0.000760  
620.000000	0.000740  
614.000000	0.001000  
608.000000	0.001200  
602.000000	0.001340  
596.000000	0.001480  
590.000000	0.001720  
584.000000	0.001940  
578.000000	0.002060  
572.000000	0.002300  
566.000000	0.002660  
560.000000	0.002740  
554.000000	0.003170  
548.000000	0.003590  
542.000000	0.003960  
536.000000	0.004420  
530.000000	0.004950  
524.000000	0.005490  
518.000000	0.005980  
512.000000	0.006730  
506.000000	0.007460  
500.000000	0.008359  
494.000000	0.009150  
488.000000	0.010170  
482.000000	0.011270  
476.000000	0.012240  
470.000000	0.013540  
464.000000	0.014700  
458.000000	0.016120  
452.000000	0.017240  
446.000000	0.018880  
440.000000	0.020310  
434.000000	0.021870  
428.000000	0.023600  
422.000000	0.024970  
416.000000	0.027180  
410.000000	0.029400  
404.000000	0.032020  
398.000000	0.034760  
392.000000	0.038400  
386.000000	0.042390  
380.000000	0.047440  
374.000000	0.051740  
368.000000	0.059040  
362.000000	0.066379  
356.000000	0.074759  
350.000000	0.085340  
344.000000	0.096340  
338.000000	0.110000  
332.000000	0.122620  
326.000000	0.138180  
320.000000	0.155020  
314.000000	0.177100  
308.000000	0.204830  
302.000000	0.240740  
296.000000	0.277000  
290.000000	0.311900  
284.000000	0.345190  
278.000000	0.374200  
272.000000	0.374910  
266.000000	0.363630  
260.000000	0.359700  
254.000000	0.373290  
248.000000	0.405160  
242.000000	0.471440  
236.000000	0.626220  
230.000000	0.964830  
224.000000	1.556780  
218.000000	2.324370  
212.000000	2.999360  
206.000000	3.334460  
200.000000	3.389580  

