PE UV                   SPECTRUM    ASCII       PEDS        1.60        
  -1
1-2MLA.SP
02/09/24
01:23:50.00
02/09/24
02:22:45.00


200.000000
1









4444

SCAN
1
1


0.0
240.0
1.00
MANUAL



UV/VIS




































#HDR
-1
-1
#GR
NM
A
0.00000011920928955078
0.0
800.000000
6.000000
101
8
3.755260
0.001910
#DATA
800.000000	0.001910 
794.000000	0.002070 
788.000000	0.002130 
782.000000	0.002090 
776.000000	0.002270 
770.000000	0.002270 
764.000000	0.002360 
758.000000	0.002390 
752.000000	0.002520 
746.000000	0.002610 
740.000000	0.002700 
734.000000	0.002690 
728.000000	0.002710 
722.000000	0.002910 
716.000000	0.002880 
710.000000	0.003020 
704.000000	0.003050 
698.000000	0.003200 
692.000000	0.003330 
686.000000	0.003530 
680.000000	0.003690 
674.000000	0.003580 
668.000000	0.003840 
662.000000	0.003970 
656.000000	0.004240 
650.000000	0.004440 
644.000000	0.004570 
638.000000	0.004660 
632.000000	0.004990 
626.000000	0.005220 
620.000000	0.005480 
614.000000	0.005780 
608.000000	0.006030 
602.000000	0.006310 
596.000000	0.006720 
590.000000	0.006980 
584.000000	0.007440 
578.000000	0.007760 
572.000000	0.008480 
566.000000	0.008869 
560.000000	0.009500 
554.000000	0.009990 
548.000000	0.010750 
542.000000	0.011620 
536.000000	0.012440 
530.000000	0.013220 
524.000000	0.014410 
518.000000	0.015490 
512.000000	0.016980 
506.000000	0.018040 
500.000000	0.019600 
494.000000	0.021120 
488.000000	0.022770 
482.000000	0.024550 
476.000000	0.026530 
470.000000	0.028600 
464.000000	0.030570 
458.000000	0.033000 
452.000000	0.035130 
446.000000	0.037810 
440.000000	0.040500 
434.000000	0.043120 
428.000000	0.046080 
422.000000	0.049210 
416.000000	0.052910 
410.000000	0.056650 
404.000000	0.061470 
398.000000	0.066559 
392.000000	0.072859 
386.000000	0.079659 
380.000000	0.089760 
374.000000	0.097440 
368.000000	0.108230 
362.000000	0.120250 
356.000000	0.135970 
350.000000	0.153180 
344.000000	0.173200 
338.000000	0.193830 
332.000000	0.216930 
326.000000	0.241230 
320.000000	0.270160 
314.000000	0.306570 
308.000000	0.354090 
302.000000	0.413370 
296.000000	0.473620 
290.000000	0.530800 
284.000000	0.584890 
278.000000	0.630300 
272.000000	0.628840 
266.000000	0.609230 
260.000000	0.603909 
254.000000	0.628410 
248.000000	0.684230 
242.000000	0.797990 
236.000000	1.059250 
230.000000	1.621350 
224.000000	2.563790 
218.000000	3.447380 
212.000000	3.752620 
206.000000	3.755260 
200.000000	3.676640 

