PE UV                   SPECTRUM    ASCII       PEDS        1.60        
  -1
1-5ML.SP
02/09/24
02:46:53.00
02/09/24
02:59:27.00


200.000000
1









4444

SCAN
1
1


0.0
240.0
1.00
MANUAL



UV/VIS




































#HDR
-1
-1
#GR
NM
A
0.00000011920928955078
0.0
800.000000
6.000000
101
8
3.789450
-0.000290
#DATA
800.000000	-0.000290 
794.000000	-0.000030 
788.000000	-0.000060 
782.000000	-0.000110 
776.000000	0.000010  
770.000000	0.000020  
764.000000	-0.000020 
758.000000	-0.000030 
752.000000	0.000100  
746.000000	0.000230  
740.000000	0.000190  
734.000000	0.000160  
728.000000	0.000220  
722.000000	0.000300  
716.000000	0.000400  
710.000000	0.000410  
704.000000	0.000530  
698.000000	0.000690  
692.000000	0.000880  
686.000000	0.000889  
680.000000	0.001160  
674.000000	0.001170  
668.000000	0.001420  
662.000000	0.001660  
656.000000	0.001990  
650.000000	0.002180  
644.000000	0.002410  
638.000000	0.002570  
632.000000	0.002750  
626.000000	0.002870  
620.000000	0.002890  
614.000000	0.003220  
608.000000	0.003430  
602.000000	0.003520  
596.000000	0.003820  
590.000000	0.004070  
584.000000	0.004350  
578.000000	0.004620  
572.000000	0.005030  
566.000000	0.005660  
560.000000	0.005830  
554.000000	0.006650  
548.000000	0.007270  
542.000000	0.008050  
536.000000	0.008680  
530.000000	0.009509  
524.000000	0.010480  
518.000000	0.011380  
512.000000	0.012560  
506.000000	0.013660  
500.000000	0.015170  
494.000000	0.016400  
488.000000	0.017940  
482.000000	0.019510  
476.000000	0.021240  
470.000000	0.023210  
464.000000	0.025110  
458.000000	0.027220  
452.000000	0.029180  
446.000000	0.031600  
440.000000	0.033750  
434.000000	0.036360  
428.000000	0.038800  
422.000000	0.041790  
416.000000	0.045080  
410.000000	0.048670  
404.000000	0.053020  
398.000000	0.057500  
392.000000	0.063190  
386.000000	0.069480  
380.000000	0.077940  
374.000000	0.085750  
368.000000	0.095490  
362.000000	0.106580  
356.000000	0.120910  
350.000000	0.137100  
344.000000	0.154570  
338.000000	0.174150  
332.000000	0.194270  
326.000000	0.218220  
320.000000	0.244340  
314.000000	0.278400  
308.000000	0.321450  
302.000000	0.375790  
296.000000	0.431640  
290.000000	0.484690  
284.000000	0.536430  
278.000000	0.581050  
272.000000	0.582440  
266.000000	0.565870  
260.000000	0.560290  
254.000000	0.581450  
248.000000	0.630430  
242.000000	0.733470  
236.000000	0.971280  
230.000000	1.487650  
224.000000	2.362870  
218.000000	3.285110  
212.000000	3.641630  
206.000000	3.789450  
200.000000	3.706930  

