PE UV                   SPECTRUM    ASCII       PEDS        1.60        
  -1
2-0ML.SP
02/09/24
02:52:21.00
02/09/24
02:59:38.00


200.000000
1









4444

SCAN
1
1


0.0
240.0
1.00
MANUAL



UV/VIS




































#HDR
-1
-1
#GR
NM
A
0.00000011920928955078
0.0
800.000000
6.000000
101
8
3.936660
-0.000210
#DATA
800.000000	-0.000210 
794.000000	-0.000160 
788.000000	-0.000060 
782.000000	-0.000069 
776.000000	0.000010  
770.000000	0.000020  
764.000000	0.000090  
758.000000	0.000180  
752.000000	0.000240  
746.000000	0.000160  
740.000000	0.000280  
734.000000	0.000300  
728.000000	0.000430  
722.000000	0.000580  
716.000000	0.000580  
710.000000	0.000670  
704.000000	0.000780  
698.000000	0.000870  
692.000000	0.001010  
686.000000	0.001110  
680.000000	0.001270  
674.000000	0.001410  
668.000000	0.001550  
662.000000	0.001660  
656.000000	0.002000  
650.000000	0.002260  
644.000000	0.002550  
638.000000	0.002840  
632.000000	0.003120  
626.000000	0.003420  
620.000000	0.003840  
614.000000	0.004050  
608.000000	0.004550  
602.000000	0.004800  
596.000000	0.005400  
590.000000	0.005730  
584.000000	0.006260  
578.000000	0.006660  
572.000000	0.007160  
566.000000	0.007979  
560.000000	0.008310  
554.000000	0.009250  
548.000000	0.009840  
542.000000	0.010820  
536.000000	0.011810  
530.000000	0.012900  
524.000000	0.014200  
518.000000	0.015460  
512.000000	0.016920  
506.000000	0.018490  
500.000000	0.020400  
494.000000	0.022190  
488.000000	0.024210  
482.000000	0.026290  
476.000000	0.028620  
470.000000	0.031170  
464.000000	0.033550  
458.000000	0.036630  
452.000000	0.039260  
446.000000	0.042370  
440.000000	0.045410  
434.000000	0.048840  
428.000000	0.052330  
422.000000	0.056140  
416.000000	0.060560  
410.000000	0.065250  
404.000000	0.070900  
398.000000	0.077130  
392.000000	0.084770  
386.000000	0.093160  
380.000000	0.104210  
374.000000	0.114170  
368.000000	0.127940  
362.000000	0.143180  
356.000000	0.160850  
350.000000	0.183360  
344.000000	0.206770  
338.000000	0.233560  
332.000000	0.260440  
326.000000	0.291050  
320.000000	0.326030  
314.000000	0.370680  
308.000000	0.428650  
302.000000	0.501320  
296.000000	0.574950  
290.000000	0.646200  
284.000000	0.714979  
278.000000	0.774320  
272.000000	0.776630  
266.000000	0.755440  
260.000000	0.748330  
254.000000	0.776590  
248.000000	0.841770  
242.000000	0.978150  
236.000000	1.293700  
230.000000	1.974750  
224.000000	3.063320  
218.000000	3.701230  
212.000000	3.855390  
206.000000	3.936660  
200.000000	3.821120  

